,Susceptible,Asymptomatic,Infected,Recovered,Deceased,I_c,IA_cumulative
0,1125360.0,745.409,805.637,2342.88,23.022,3172.25,0.005658423487582165
1,1125220.0,757.2389999999999,815.992,2403.31,23.6158,3243.63,0.005782124188435045
2,1125080.0,769.039,826.678,2464.51,24.2172,3316.14,0.005905824889287925
3,1124940.0,780.8380000000001,837.668,2526.53,24.8266,3389.76,0.006029525590140694
4,1124790.0,792.66,848.942,2589.37,25.4441,3464.51,0.006162062055340201
5,1124640.0,804.5269999999999,860.4830000000001,2653.06,26.07,3540.38,0.006294598520539596
6,1124490.0,816.455,872.2760000000001,2717.63,26.7044,3617.38,0.0064271349857391025
7,1124340.0,828.462,884.309,2783.08,27.3475,3695.52,0.006559671450938498
8,1124190.0,840.559,896.573,2849.43,27.9996,3774.8,0.006692207916138004
9,1124030.0,852.7589999999999,909.059,2916.71,28.6607,3855.24,0.006833580145684137
10,1123880.0,865.071,921.762,2984.93,29.331,3936.84,0.006966116610883533
11,1123720.0,877.5039999999999,934.676,3054.1,30.0107,4019.62,0.0071074888404296654
12,1123550.0,890.066,947.797,3124.24,30.7,4103.59,0.007257696834322314
13,1123390.0,902.763,961.1239999999999,3195.37,31.3989,4188.75,0.007399069063868446
14,1123220.0,915.602,974.6519999999999,3267.5,32.1076,4275.13,0.007549277057761206
15,1123050.0,928.587,988.3810000000001,3340.64,32.8264,4362.73,0.007699485051653854
16,1122880.0,941.7239999999999,1002.31,3414.82,33.5552,4451.58,0.007849693045546613
17,1122710.0,955.0160000000001,1016.44,3490.04,34.2944,4541.68,0.007999901039439372
18,1122530.0,968.4680000000001,1030.77,3566.32,35.0439,4633.05,0.008158944797678647
19,1122350.0,982.0830000000001,1045.3,3643.67,35.804,4725.7,0.008317988555918032
20,1122170.0,995.865,1060.02,3722.12,36.5749,4819.66,0.008477032314157418
21,1121990.0,1009.82,1074.95,3801.67,37.3566,4914.94,0.008636076072396692
22,1121800.0,1023.94,1090.09,3882.34,38.1493,5011.54,0.008803955594982704
23,1121610.0,1038.24,1105.42,3964.14,38.9531,5109.5,0.008971835117568716
24,1121420.0,1052.71,1120.96,4047.1,39.7683,5208.83,0.009139714640154617
25,1121220.0,1067.37,1136.71,4131.22,40.5949,5309.54,0.009316429927087255
26,1121030.0,1082.21,1152.66,4216.52,41.4331,5411.65,0.009484309449673267
27,1120830.0,1097.23,1168.83,4303.02,42.2831,5515.18,0.009661024736605905
28,1120630.0,1112.44,1185.21,4390.74,43.145,5620.14,0.009837740023538433
29,1120420.0,1127.84,1201.8,4479.68,44.0189,5726.56,0.010023291074817697
30,1120210.0,1143.43,1218.6,4569.86,44.9051,5834.45,0.010208842126096962
31,1120000.0,1159.22,1235.62,4661.31,45.8037,5943.84,0.010394393177376227
32,1119790.0,1175.2,1252.87,4754.03,46.7148,6054.73,0.010579944228655491
33,1119570.0,1191.38,1270.33,4848.05,47.6387,6167.15,0.010774331044281271
34,1119350.0,1207.75,1288.02,4943.37,48.5754,6281.11,0.010968717859907162
35,1119130.0,1224.33,1305.93,5040.02,49.5251,6396.64,0.011163104675533053
36,1118900.0,1241.11,1324.07,5138.02,50.4881,6513.76,0.01136632725550557
37,1118670.0,1258.1,1342.44,5237.38,51.4644,6632.47,0.011569549835478088
38,1118440.0,1275.29,1361.04,5338.11,52.4542,6752.82,0.011772772415450605
39,1118210.0,1292.69,1379.88,5440.24,53.4578,6874.8,0.011975994995423123
40,1117970.0,1310.3,1398.95,5543.78,54.4752,6998.45,0.012188053339742155
41,1117730.0,1328.13,1418.27,5648.75,55.5067,7123.78,0.012400111684061299
42,1117480.0,1346.17,1437.82,5755.17,56.5524,7250.82,0.012621005792727069
43,1117230.0,1364.42,1457.62,5863.05,57.6125,7379.58,0.01284189990139284
44,1116980.0,1382.9,1477.66,5972.42,58.6872,7510.08,0.01306279401005861
45,1116730.0,1401.59,1497.95,6083.3,59.7767,7642.35,0.01328368811872438
46,1116470.0,1420.51,1518.49,6195.69,60.8811,7776.41,0.013513417991736776
47,1116210.0,1439.64,1539.28,6309.63,62.0007,7912.28,0.013743147864749172
48,1115940.0,1459.01,1560.33,6425.12,63.1356,8049.97,0.013981713502108195
49,1115670.0,1478.6,1581.63,6542.19,64.286,8189.51,0.014220279139467218
50,1115400.0,1498.41,1603.19,6660.86,65.452,8330.93,0.01445884477682624
51,1115130.0,1518.46,1625.02,6781.15,66.634,8474.24,0.014697410414185264
52,1114850.0,1538.74,1647.1,6903.07,67.8321,8619.46,0.014944811815890913
53,1114560.0,1559.26,1669.45,7026.64,69.0464,8766.63,0.015201048981943188
54,1114280.0,1580.01,1692.07,7151.9,70.2771,8915.75,0.015448450383648837
55,1113990.0,1600.99,1714.96,7278.85,71.5246,9066.85,0.015704687549701224
56,1113690.0,1622.22,1738.13,7407.51,72.7889,9219.96,0.015969760480100126
57,1113390.0,1643.68,1761.56,7537.91,74.0703,9375.1,0.016234833410499028
58,1113090.0,1665.39,1785.27,7670.07,75.3689,9532.29,0.01649990634089793
59,1112790.0,1687.33,1809.26,7804.0,76.685,9691.55,0.01676497927129683
60,1112480.0,1709.53,1833.53,7939.74,78.0188,9852.91,0.01703888796604236
61,1112160.0,1731.96,1858.09,8077.29,79.3704,10016.4,0.017321632425134514
62,1111840.0,1754.65,1882.93,8216.68,80.7401,10182.0,0.01760437688422678
63,1111520.0,1777.58,1908.05,8357.94,82.1281,10349.8,0.017887121343318935
64,1111190.0,1800.77,1933.47,8501.08,83.5347,10519.8,0.018178701566757716
65,1110860.0,1824.2,1959.17,8646.12,84.9599,10692.0,0.018470281790196497
66,1110530.0,1847.89,1985.17,8793.09,86.4041,10866.4,0.01876186201363539
67,1110190.0,1871.84,2011.46,8942.01,87.8674,11043.1,0.019062278001420796
68,1109850.0,1896.03,2038.05,9092.89,89.3501,11222.1,0.019362693989206203
69,1109500.0,1920.49,2064.94,9245.77,90.8523,11403.4,0.019671945741338348
70,1109150.0,1945.2,2092.13,9400.67,92.3744,11587.0,0.019981197493470382
71,1108790.0,1970.17,2119.62,9557.6,93.9165,11773.0,0.020299285009949042
72,1108430.0,1995.4,2147.41,9716.6,95.4788,11961.4,0.020617372526427813
73,1108060.0,2020.89,2175.51,9877.67,97.0616,12152.2,0.0209442958072531
74,1107690.0,2046.64,2203.92,10040.9,98.6651,12345.4,0.021271219088078386
75,1107320.0,2072.65,2232.64,10206.2,100.289,12541.1,0.021598142368903783
76,1106940.0,2098.93,2261.67,10373.6,101.935,12739.2,0.021933901414075696
77,1106550.0,2125.47,2291.01,10543.3,103.602,12939.9,0.022278496223594346
78,1106160.0,2152.28,2320.66,10715.1,105.29,13143.1,0.022623091033112885
79,1105770.0,2179.35,2350.63,10889.2,107.001,13348.9,0.022967685842631536
80,1105370.0,2206.69,2380.92,11065.5,108.73299999999999,13557.2,0.0233211164164967
81,1104970.0,2234.29,2411.53,11244.0,110.488,13768.2,0.023674546990361978
82,1104560.0,2262.16,2442.45,11424.9,112.265,13981.8,0.02403681332857377
83,1104140.0,2290.3,2473.7,11608.1,114.065,14198.0,0.0244079154311323
84,1103720.0,2318.71,2505.27,11793.6,115.88799999999999,14416.9,0.024779017533690717
85,1103300.0,2347.38,2537.16,11981.5,117.734,14638.6,0.025150119636249246
86,1102870.0,2376.33,2569.37,12171.8,119.604,14863.0,0.025530057503154402
87,1102430.0,2405.54,2601.92,12364.4,121.49700000000001,15090.1,0.025918831134406073
88,1102000.0,2435.02,2634.79,12559.6,123.415,15320.1,0.02629876900131123
89,1101550.0,2464.77,2667.98,12757.1,125.35600000000001,15552.8,0.026696378396909637
90,1101100.0,2494.79,2701.51,12957.2,127.322,15788.4,0.027093987792507934
91,1100640.0,2525.08,2735.36,13159.8,129.313,16026.9,0.02750043295245297
92,1100180.0,2555.63,2769.54,13364.9,131.329,16268.2,0.027906878112398004
93,1099720.0,2586.46,2804.06,13572.6,133.369,16512.5,0.02831332327234304
94,1099240.0,2617.55,2838.9,13782.9,135.435,16759.7,0.028737439960981215
95,1098770.0,2648.9,2874.08,13995.7,137.52700000000002,17009.9,0.029152720885272876
96,1098280.0,2680.53,2909.59,14211.2,139.645,17263.0,0.02958567333825779
97,1097790.0,2712.42,2945.43,14429.4,141.789,17519.2,0.030018625791242703
98,1097300.0,2744.57,2981.6,14650.3,143.959,17778.4,0.030451578244227617
99,1096800.0,2776.99,3018.1,14873.8,146.155,18040.7,0.030893366461559157
100,1096290.0,2809.67,3054.94,15100.1,148.379,18306.1,0.031343990443237324
101,1095780.0,2842.62,3092.11,15329.1,150.63,18574.6,0.03179461442491549
102,1095260.0,2875.82,3129.61,15561.0,152.908,18846.2,0.03225407417094028
103,1094740.0,2909.29,3167.44,15795.6,155.213,19121.0,0.032713533916965076
104,1094210.0,2943.01,3205.61,16033.1,157.547,19399.0,0.033181829427336496
105,1093670.0,2976.99,3244.11,16273.4,159.908,19680.2,0.03365896070205454
106,1093130.0,3011.22,3282.93,16516.6,162.298,19964.7,0.03413609197677259
107,1092580.0,3045.7,3322.09,16762.7,164.717,20252.4,0.03462205901583726
108,1092030.0,3080.44,3361.57,17011.8,167.16400000000002,20543.4,0.03510802605490193
109,1091470.0,3115.43,3401.39,17263.7,169.64,20837.7,0.03560282885831323
110,1090900.0,3150.66,3441.53,17518.7,172.145,21135.4,0.036106467426071154
111,1090330.0,3186.14,3481.99,17776.7,174.68,21436.4,0.03661010599382908
112,1089750.0,3221.86,3522.78,18037.7,177.245,21740.8,0.03712258032593363
113,1089170.0,3257.82,3563.89,18301.8,179.84,22048.6,0.03763505465803829
114,1088580.0,3294.02,3605.33,18568.9,182.465,22359.8,0.03815636475448947
115,1087980.0,3330.45,3647.08,18839.1,185.12,22674.5,0.03868651061528727
116,1087370.0,3367.12,3689.15,19112.5,187.80599999999998,22992.7,0.0392254922404317
117,1086760.0,3404.01,3731.54,19389.0,190.523,23314.3,0.039764473865576244
118,1086140.0,3441.13,3774.24,19668.7,193.27200000000002,23639.5,0.0403122912550673
119,1085520.0,3478.47,3817.26,19951.5,196.051,23968.2,0.04086010864455836
120,1084890.0,3516.03,3860.58,20237.6,198.862,24300.4,0.04141676179839615
121,1084250.0,3553.81,3904.21,20527.0,201.705,24636.2,0.04198225071658046
122,1083610.0,3591.79,3948.14,20819.5,204.58,24975.7,0.04254773963476488
123,1082960.0,3629.99,3992.37,21115.4,207.488,25318.7,0.043122064317295816
124,1082300.0,3668.38,4036.9,21414.6,210.428,25665.4,0.04370522476417349
125,1081640.0,3706.98,4081.73,21717.1,213.4,26015.8,0.04428838521105105
126,1080970.0,3745.77,4126.84,22023.0,216.40599999999998,26369.8,0.04488038142227535
127,1080290.0,3784.76,4172.25,22332.2,219.44400000000002,26727.5,0.045481213397846165
128,1079610.0,3823.93,4217.94,22644.8,222.516,27088.9,0.04608204537341709
129,1078920.0,3863.28,4263.91,22960.9,225.622,27454.1,0.04669171311333453
130,1078220.0,3902.8,4310.16,23280.4,228.761,27823.0,0.04731021661759871
131,1077510.0,3942.5,4356.68,23603.3,231.935,28195.7,0.047937555886209515
132,1076800.0,3982.36,4403.46,23929.7,235.142,28572.1,0.04856489515482021
133,1076080.0,4022.39,4450.51,24259.6,238.38400000000001,28952.4,0.04920107018777764
134,1075360.0,4062.56,4497.82,24593.1,241.66,29336.4,0.04983724522073507
135,1074630.0,4102.89,4545.39,24930.0,244.972,29724.3,0.05048225601803913
136,1073890.0,4143.36,4593.2,25270.6,248.31799999999998,30116.0,0.05113610257968981
137,1073140.0,4183.97,4641.26,25614.6,251.699,30511.6,0.05179878490568701
138,1072390.0,4224.71,4689.55,25962.3,255.115,30911.0,0.05246146723168432
139,1071630.0,4265.57,4738.08,26313.6,258.567,31314.3,0.05313298532202826
140,1070860.0,4306.56,4786.83,26668.5,262.055,31721.5,0.05381333917671882
141,1070080.0,4347.65,4835.81,27027.1,265.578,32132.6,0.05450252879575601
142,1069300.0,4388.85,4885.0,27389.3,269.137,32547.6,0.0551917184147932
143,1068510.0,4430.14,4934.4,27755.2,272.733,32966.5,0.055889743798177016
144,1067720.0,4471.53,4984.0,28124.8,276.36400000000003,33389.4,0.05658776918156083
145,1066910.0,4513.0,5033.79,28498.0,280.032,33816.2,0.0573034660936379
146,1066100.0,4554.54,5083.78,28875.0,283.737,34246.9,0.05801916300571497
147,1065290.0,4596.16,5133.95,29255.8,287.478,34681.6,0.05873485991779204
148,1064460.0,4637.83,5184.29,29640.2,291.256,35120.2,0.05946822835856236
149,1063630.0,4679.56,5234.79,30028.5,295.07099999999997,35562.8,0.06020159679933268
150,1062790.0,4721.33,5285.46,30420.5,298.923,36009.3,0.06094380100444974
151,1061950.0,4763.13,5336.28,30816.3,302.812,36459.9,0.061686005209566686
152,1061090.0,4804.97,5387.24,31215.8,306.738,36914.4,0.062445880943376886
153,1060230.0,4846.82,5438.33,31619.2,310.702,37372.9,0.06320575667718709
154,1059370.0,4888.68,5489.55,32026.4,314.703,37835.3,0.0639656324109974
155,1058490.0,4930.54,5540.89,32437.4,318.742,38301.8,0.06474317967350085
156,1057610.0,4972.4,5592.34,32852.3,322.818,38772.2,0.0655207269360043
157,1056720.0,5014.24,5643.89,33271.0,326.933,39246.5,0.0663071099628545
158,1055830.0,5056.05,5695.53,33693.5,331.085,39724.9,0.06709349298970457
159,1054930.0,5097.83,5747.25,34119.9,335.274,40207.2,0.06788871178090128
160,1054020.0,5139.56,5799.04,34550.1,339.50199999999995,40693.5,0.06869276633644472
161,1053100.0,5181.24,5850.89,34984.2,343.76800000000003,41183.8,0.06950565665633468
162,1052180.0,5222.86,5902.8,35422.2,348.07099999999997,41678.0,0.07031854697622475
163,1051250.0,5264.4,5954.75,35864.0,352.413,42176.2,0.07114027306046133
164,1050310.0,5305.85,6006.72,36309.7,356.793,42678.3,0.07197083490904466
165,1049360.0,5347.21,6058.72,36759.3,361.21,43184.3,0.0728102325219745
166,1048410.0,5388.47,6110.74,37212.8,365.666,43694.3,0.07364963013490444
167,1047450.0,5429.61,6162.75,37670.1,370.16,44208.2,0.07449786351218102
168,1046490.0,5470.63,6214.74,38131.3,374.69199999999995,44725.9,0.07534609688945748
169,1045520.0,5511.5,6266.72,38596.4,379.26199999999994,45247.6,0.07620316603108068
170,1044540.0,5552.24,6318.66,39065.4,383.87,45773.2,0.07706907093705051
171,1043550.0,5592.81,6370.56,39538.2,388.517,46302.6,0.07794381160736685
172,1042560.0,5633.22,6422.4,40014.9,393.20099999999996,46835.8,0.07881855227768331
173,1041560.0,5673.45,6474.17,40495.4,397.923,47372.9,0.07970212871234639
174,1040560.0,5713.48,6525.86,40979.8,402.68300000000005,47913.8,0.08058570514700947
175,1039550.0,5753.32,6577.46,41468.1,407.481,48458.5,0.08147811734601917
176,1038530.0,5792.94,6628.95,41960.2,412.316,49007.0,0.08237936530937551
177,1037500.0,5832.34,6680.33,42456.1,417.19,49559.2,0.08328944903707836
178,1036470.0,5871.51,6731.58,42955.9,422.1,50115.2,0.08419953276478132
179,1035440.0,5910.42,6782.68,43459.5,427.04900000000004,50674.8,0.08510961649248427
180,1034390.0,5949.08,6833.63,43966.9,432.034,51238.2,0.08603737174888049
181,1033340.0,5987.48,6884.41,44478.0,437.05699999999996,51805.2,0.0869651270052767
182,1032280.0,6025.59,6935.01,44993.0,442.11699999999996,52375.8,0.08790171802601954
183,1031220.0,6063.41,6985.42,45511.7,447.214,52950.1,0.08883830904676238
184,1030150.0,6100.92,7035.61,46034.1,452.348,53527.9,0.08978373583185184
185,1029080.0,6138.13,7085.59,46560.3,457.519,54109.3,0.0907291626169413
186,1028000.0,6175.0,7135.34,47090.2,462.726,54694.2,0.0916834251663774
187,1026910.0,6211.54,7184.83,47623.8,467.969,55282.5,0.09264652348016023
188,1025820.0,6247.73,7234.07,48161.1,473.249,55874.4,0.09360962179394294
189,1024720.0,6283.56,7283.03,48702.1,478.564,56469.6,0.09458155587207229
190,1023620.0,6319.02,7331.71,49246.6,483.916,57068.3,0.09555348995020163
191,1022510.0,6354.1,7380.08,49794.8,489.30199999999996,57670.3,0.0965342597926776
192,1021390.0,6388.78,7428.14,50346.6,494.724,58275.6,0.0975238653995002
193,1020270.0,6423.06,7475.87,50902.0,500.18199999999996,58884.2,0.0985134710063229
194,1019150.0,6456.92,7523.26,51460.9,505.67400000000004,59496.0,0.0995030766131455
195,1018020.0,6490.35,7570.29,52023.3,511.2,60111.0,0.10050151798431473
196,1016880.0,6523.35,7616.95,52589.3,516.761,60729.2,0.10150879511983069
197,1015740.0,6555.89,7663.22,53158.6,522.356,61350.4,0.10251607225534654
198,1014590.0,6587.98,7709.1,53731.4,527.985,61974.8,0.10353218515520901
199,1013440.0,6619.59,7754.57,54307.7,533.6469999999999,62602.2,0.1045482980550716
200,1012290.0,6650.72,7799.61,54887.3,539.342,63232.5,0.10556441095493407
201,1011130.0,6681.36,7844.21,55470.2,545.07,63865.8,0.10658935961914318
202,1009960.0,6711.49,7888.36,56056.4,550.831,64502.0,0.10762314404769902
203,1008790.0,6741.12,7932.04,56645.9,556.624,65141.0,0.10865692847625474
204,1007620.0,6770.22,7975.25,57238.7,562.448,65782.8,0.10969071290481058
205,1006440.0,6798.78,8017.96,57834.7,568.304,66427.4,0.11073333309771294
206,1005250.0,6826.8,8060.16,58433.8,574.192,67074.6,0.11178478905496203
207,1004070.0,6854.27,8101.84,59036.0,580.109,67724.5,0.11282740924786439
208,1002880.0,6881.18,8142.99,59641.3,586.058,68376.9,0.11387886520511348
209,1001680.0,6907.51,8183.59,60249.7,592.036,69031.9,0.11493915692670909
210,1000480.0,6933.27,8223.63,60861.1,598.043,69689.4,0.1159994486483048
211,999280.0,6958.43,8263.09,61475.4,604.08,70349.2,0.11705974036990041
212,998074.0,6982.99,8301.97,62092.7,610.146,71011.5,0.11812533355010413
213,996864.0,7006.95,8340.25,62712.9,616.239,71676.0,0.11919446103604636
214,995651.0,7030.28,8377.92,63335.8,622.361,72342.8,0.12026623925129265
215,994434.0,7053.0,8414.97,63961.6,628.51,73011.8,0.12134155177227757
216,993215.0,7075.08,8451.38,64590.1,634.686,73682.9,0.12241863144613185
217,991992.0,7096.52,8487.14,65221.3,640.888,74356.0,0.12349924542572477
218,990766.0,7117.31,8522.24,65855.1,647.116,75031.2,0.12458251013462174
219,989538.0,7137.45,8556.67,66491.5,653.37,75708.3,0.12566754199638797
220,988307.0,7156.92,8590.41,67130.4,659.648,76387.3,0.12675522458745814
221,987073.0,7175.72,8623.46,67771.9,665.951,77068.1,0.12784555790783236
222,985837.0,7193.85,8655.81,68415.8,672.278,77750.7,0.12893765838107596
223,984599.0,7211.3,8687.43,69062.0,678.6289999999999,78434.9,0.1300315260071888
224,983358.0,7228.05,8718.33,69710.6,685.002,79120.8,0.1311280443626056
225,982115.0,7244.11,8748.49,70361.5,691.398,79808.3,0.13222632987089178
226,980870.0,7259.47,8777.9,71014.6,697.815,80497.2,0.13332638253204732
227,979624.0,7274.13,8806.55,71669.9,704.2539999999999,81187.6,0.13442731876963754
228,978376.0,7288.07,8834.43,72327.2,710.7139999999999,81879.3,0.13553002216009702
229,977126.0,7301.3,8861.53,72986.6,717.193,82572.3,0.13663449270342576
230,975874.0,7313.81,8887.85,73648.0,723.692,83266.5,0.13774073039962398
231,974622.0,7325.6,8913.37,74311.4,730.211,83961.9,0.1388469680958221
232,973368.0,7336.66,8938.08,74976.6,736.747,84658.4,0.13995497294488957
233,972113.0,7346.98,8961.98,75643.6,743.302,85355.9,0.14106386137039173
234,970857.0,7356.57,8985.06,76312.4,749.873,86054.3,0.14217363337232847
235,969600.0,7365.43,9007.31,76982.8,756.461,86753.6,0.1432842889507
236,968343.0,7373.54,9028.72,77654.9,763.065,87453.7,0.14439494452907142
237,967085.0,7380.91,9049.29,78328.6,769.685,88154.5,0.14550648368387753
238,965826.0,7387.54,9069.01,79003.7,776.319,88856.1,0.14661890641511832
239,964567.0,7393.42,9087.87,79680.3,782.9680000000001,89558.2,0.1477313291463591
240,963309.0,7398.55,9105.86,80358.3,789.63,90260.8,0.14884286830116522
241,962049.0,7402.93,9122.99,81037.5,796.304,90963.9,0.1499561746088407
242,960791.0,7406.56,9139.24,81718.1,802.9910000000001,91667.3,0.1510677137636468
243,959532.0,7409.44,9154.61,82399.8,809.69,92371.1,0.1521801364948876
244,958273.0,7411.57,9169.09,83082.6,816.4,93075.1,0.1532925592261284
245,957015.0,7412.95,9182.69,83766.4,823.1189999999999,93779.3,0.1544040983809345
246,955758.0,7413.58,9195.39,84451.3,829.8489999999999,94483.5,0.15551475395930603
247,954501.0,7413.46,9207.19,85137.0,836.587,95187.8,0.15662540953767745
248,953245.0,7412.59,9218.09,85823.6,843.334,95892.1,0.1577351815396143
249,951991.0,7410.97,9228.09,86511.0,850.0880000000001,96596.2,0.15884318638868178
250,950737.0,7408.61,9237.18,87199.1,856.85,97300.1,0.15995119123774926
251,949484.0,7405.5,9245.36,87887.8,863.617,98003.8,0.16105831251038205
252,948233.0,7401.65,9252.62,88577.1,870.3910000000001,98707.1,0.16216366663014548
253,946983.0,7397.06,9258.98,89266.9,877.169,99410.1,0.16326813717347433
254,945735.0,7391.73,9264.42,89957.2,883.952,100113.0,0.1643708405639338
255,944488.0,7385.68,9268.94,90647.8,890.738,100814.0,0.1654726603779586
256,943244.0,7378.89,9272.55,91338.7,897.528,101516.0,0.16657182946267945
257,942001.0,7371.37,9275.24,92029.9,904.319,102216.0,0.16767011497096573
258,940760.0,7363.13,9277.01,92721.2,911.112,102916.0,0.16876663332638253
259,939521.0,7354.18,9277.87,93412.6,917.9069999999999,103615.0,0.16986138452893007
260,938285.0,7344.51,9277.82,94104.1,924.701,104314.0,0.17095348500217356
261,937051.0,7334.13,9276.85,94795.5,931.495,105011.0,0.17204381832254778
262,935820.0,7323.04,9274.96,95486.8,938.288,105707.0,0.17313150091361806
263,934591.0,7311.26,9272.17,96178.0,945.08,106402.0,0.17421741635181898
264,933365.0,7298.78,9268.47,96868.9,951.8689999999999,107096.0,0.17530068106071584
265,932142.0,7285.62,9263.87,97559.5,958.655,107789.0,0.17638129504030875
266,930922.0,7271.78,9258.36,98249.7,965.437,108480.0,0.17745925829059772
267,929705.0,7257.26,9251.95,98939.5,972.215,109171.0,0.17853457081158264
268,928491.0,7242.07,9244.65,99628.7,978.988,109859.0,0.1796072326032636
269,927281.0,7226.21,9236.45,100317.0,985.755,110546.0,0.18067636008920585
270,926074.0,7209.71,9227.37,101005.0,992.5160000000001,111232.0,0.18174283684584414
271,924870.0,7192.55,9217.41,101693.0,999.27,111916.0,0.18280666287317848
272,923670.0,7174.75,9206.57,102379.0,1006.02,112599.0,0.1838669545947742
273,922474.0,7156.32,9194.86,103065.0,1012.75,113279.0,0.18492371201063118
274,921281.0,7137.27,9182.28,103750.0,1019.48,113958.0,0.18597781869718422
275,920092.0,7117.6,9168.84,104434.0,1026.2,114635.0,0.18702839107799862
276,918908.0,7097.31,9154.54,105116.0,1032.91,115311.0,0.1880745455766396
277,917727.0,7076.43,9139.4,105798.0,1039.61,115984.0,0.18911804934597676
278,916551.0,7054.95,9123.42,106479.0,1046.3,116655.0,0.19015713523314048
279,915379.0,7032.89,9106.6,107158.0,1052.97,117324.0,0.19119268681456558
280,914211.0,7010.25,9088.96,107836.0,1059.64,117991.0,0.19222470409025205
281,913048.0,6987.05,9070.49,108513.0,1066.29,118656.0,0.1932523034837652
282,911889.0,6963.29,9051.22,109188.0,1072.92,119319.0,0.19427636857153963
283,910735.0,6938.98,9031.14,109862.0,1079.54,119979.0,0.19529601577714084
284,909585.0,6914.13,9010.27,110534.0,1086.15,120637.0,0.19631212867700332
285,908441.0,6888.76,8988.62,111205.0,1092.74,121293.0,0.1973229401182579
286,907301.0,6862.86,8966.19,111874.0,1099.32,121946.0,0.19833021725377376
287,906166.0,6836.45,8942.99,112541.0,1105.87,122597.0,0.1993330765071163
288,905036.0,6809.54,8919.03,113207.0,1112.41,123245.0,0.20033151787828563
289,903912.0,6782.14,8894.32,113871.0,1118.94,123891.0,0.20132465779084685
290,902792.0,6754.26,8868.88,114533.0,1125.44,124534.0,0.20231426339766945
291,901678.0,6725.91,8842.71,115193.0,1131.93,125174.0,0.20329856754588416
292,900569.0,6697.1,8815.81,115851.0,1138.39,125811.0,0.20427845381192544
293,899465.0,6667.84,8788.21,116507.0,1144.84,126446.0,0.20525392219579341
294,898367.0,6638.14,8759.92,117161.0,1151.26,127078.0,0.2062240891210535
295,897274.0,6608.01,8730.93,117813.0,1157.67,127707.0,0.20718983816414027
296,896187.0,6577.46,8701.27,118462.0,1164.05,128334.0,0.20815028574861894
297,895106.0,6546.5,8670.95,119110.0,1170.41,128957.0,0.2091054318744897
298,894030.0,6515.14,8639.97,119755.0,1176.75,129578.0,0.21005616011818717
299,892960.0,6483.39,8608.35,120397.0,1183.07,130195.0,0.21100158690327664
