,Susceptible,Asymptomatic,Infected,Recovered,Deceased,I_c,IA_cumulative
0,1515790.0,56.6994,139.85399999999998,4440.28,104.796,4685.04,0.004350330692131532
1,1515780.0,54.7796,135.121,4455.93,105.029,4696.19,0.004356899211974685
2,1515760.0,52.9248,130.548,4471.05,105.25399999999999,4706.96,0.004370036251660991
3,1515750.0,51.1329,126.13,4485.66,105.47200000000001,4717.36,0.0043766047715041445
4,1515730.0,49.4016,121.861,4499.77,105.682,4727.41,0.004389741811190562
5,1515720.0,47.729,117.736,4513.4,105.885,4737.12,0.004396310331033715
6,1515710.0,46.113,113.751,4526.58,106.081,4746.5,0.004402878850876868
7,1515690.0,44.5516,109.90100000000001,4539.31,106.271,4755.57,0.004416015890563174
8,1515680.0,43.0432,106.181,4551.6,106.454,4764.32,0.004422584410406327
9,1515670.0,41.5858,102.587,4563.48,106.631,4772.78,0.004429152930249591
10,1515660.0,40.1777,99.1143,4574.96,106.801,4780.96,0.004435721450092744
11,1515650.0,38.8173,95.7591,4586.05,106.96700000000001,4788.85,0.0044422899699358975
12,1515640.0,37.503,92.5175,4596.77,107.126,4796.48,0.004448858489779051
13,1515630.0,36.2331,89.3856,4607.12,107.28,4803.86,0.004455427009622204
14,1515620.0,35.0062,86.3596,4617.12,107.429,4810.98,0.004461995529465357
15,1515610.0,33.8209,83.436,4626.78,107.573,4817.86,0.00446856404930851
16,1515600.0,32.6757,80.6113,4636.12,107.712,4824.51,0.004475132569151774
17,1515590.0,31.5692,77.8823,4645.14,107.846,4830.93,0.004481701088994927
18,1515580.0,30.5003,75.2455,4653.85,107.976,4837.13,0.00448826960883808
19,1515570.0,29.4675,72.69800000000001,4662.27,108.101,4843.13,0.004494838128681233
20,1515560.0,28.4696,70.2367,4670.41,108.22200000000001,4848.92,0.004501406648524386
21,1515550.0,27.5056,67.8587,4678.27,108.339,4854.52,0.0045079751683675395
22,1515550.0,26.5742,65.5612,4685.86,108.45200000000001,4859.92,0.0045079751683675395
23,1515540.0,25.6743,63.3415,4693.2,108.56200000000001,4865.15,0.004514543688210804
24,1515530.0,24.8049,61.1969,4700.28,108.667,4870.19,0.004521112208053957
25,1515530.0,23.9649,59.1248,4707.13,108.76899999999999,4875.07,0.004521112208053957
26,1515520.0,23.1533,57.1229,4713.75,108.868,4879.78,0.00452768072789711
27,1515510.0,22.3693,55.1888,4720.14,108.963,4884.33,0.004534249247740263
28,1515510.0,21.6118,53.3201,4726.31,109.055,4888.73,0.004534249247740263
29,1515500.0,20.8799,51.5147,4732.28,109.14399999999999,4892.98,0.004540817767583416
30,1515500.0,20.1728,49.7704,4738.04,109.229,4897.08,0.004540817767583416
31,1515490.0,19.4897,48.0851,4743.61,109.31200000000001,4901.05,0.004547386287426569
32,1515480.0,18.8297,46.4569,4748.99,109.39200000000001,4904.88,0.004553954807269722
33,1515480.0,18.192,44.8838,4754.19,109.47,4908.58,0.004553954807269722
34,1515470.0,17.5759,43.364,4759.21,109.545,4912.15,0.004560523327112986
35,1515470.0,16.9807,41.8956,4764.06,109.617,4915.61,0.004560523327112986
36,1515460.0,16.4056,40.4769,4768.75,109.68700000000001,4918.95,0.0045670918469561395
37,1515460.0,15.85,39.1063,4773.28,109.75399999999999,4922.17,0.0045670918469561395
38,1515460.0,15.3133,37.782,4777.66,109.819,4925.29,0.0045670918469561395
39,1515450.0,14.7947,36.5026,4781.88,109.882,4928.3,0.0045736603667992926
40,1515450.0,14.2936,35.2665,4785.97,109.943,4931.2,0.0045736603667992926
41,1515440.0,13.8096,34.0723,4789.91,110.00200000000001,4934.01,0.004580228886642446
42,1515440.0,13.3419,32.9185,4793.73,110.05799999999999,4936.73,0.004580228886642446
43,1515440.0,12.89,31.8037,4797.41,110.113,4939.35,0.004580228886642446
44,1515430.0,12.4535,30.7267,4800.97,110.166,4941.88,0.004586797406485599
45,1515430.0,12.0317,29.6862,4804.41,110.21700000000001,4944.33,0.004586797406485599
46,1515430.0,11.6243,28.6809,4807.73,110.26700000000001,4946.7,0.004586797406485599
47,1515420.0,11.2306,27.7096,4810.94,110.315,4948.98,0.004593365926328752
48,1515420.0,10.8502,26.7712,4814.04,110.361,4951.19,0.004593365926328752
49,1515420.0,10.4828,25.8646,4817.03,110.405,4953.32,0.004593365926328752
50,1515410.0,10.1277,24.9887,4819.93,110.448,4955.38,0.004599934446172016
51,1515410.0,9.78474,24.1424,4822.72,110.49,4957.37,0.004599934446172016
52,1515410.0,9.45335,23.3248,4825.42,110.53,4959.3,0.004599934446172016
53,1515410.0,9.133189999999999,22.5349,4828.03,110.569,4961.16,0.004599934446172016
54,1515400.0,8.82387,21.7718,4830.56,110.60700000000001,4962.95,0.004606502966015169
55,1515400.0,8.52502,21.0344,4832.99,110.64299999999999,4964.68,0.004606502966015169
56,1515400.0,8.2363,20.3221,4835.35,110.678,4966.36,0.004606502966015169
57,1515400.0,7.95735,19.6339,4837.62,110.712,4967.98,0.004606502966015169
58,1515390.0,7.68785,18.9689,4839.82,110.745,4969.54,0.004613071485858322
59,1515390.0,7.42748,18.3265,4841.94,110.77600000000001,4971.05,0.004613071485858322
60,1515390.0,7.17593,17.7059,4843.99,110.807,4972.51,0.004613071485858322
61,1515390.0,6.9328899999999996,17.1062,4845.97,110.836,4973.92,0.004613071485858322
62,1515390.0,6.69809,16.5269,4847.88,110.865,4975.29,0.004613071485858322
63,1515380.0,6.47123,15.9672,4849.73,110.89200000000001,4976.6,0.004619640005701475
64,1515380.0,6.25206,15.4264,4851.52,110.919,4977.88,0.004619640005701475
65,1515380.0,6.04031,14.904000000000002,4853.25,110.945,4979.11,0.004619640005701475
66,1515380.0,5.83574,14.3992,4854.91,110.969,4980.29,0.004619640005701475
67,1515380.0,5.63809,13.9115,4856.53,110.993,4981.44,0.004619640005701475
68,1515380.0,5.44714,13.4404,4858.08,111.016,4982.55,0.004619640005701475
69,1515370.0,5.26265,12.9852,4859.59,111.039,4983.62,0.004626208525544628
70,1515370.0,5.08441,12.5454,4861.04,111.061,4984.65,0.004626208525544628
71,1515370.0,4.91221,12.1205,4862.44,111.081,4985.65,0.004626208525544628
72,1515370.0,4.74584,11.71,4863.8,111.102,4986.62,0.004626208525544628
73,1515370.0,4.5851,11.3134,4865.11,111.12100000000001,4987.55,0.004626208525544628
74,1515370.0,4.42981,10.9303,4866.37,111.14,4988.45,0.004626208525544628
75,1515370.0,4.27977,10.5601,4867.6,111.15799999999999,4989.32,0.004626208525544628
76,1515360.0,4.1348199999999995,10.2024,4868.78,111.176,4990.16,0.0046327770453877815
77,1515360.0,3.9947800000000004,9.8569,4869.92,111.193,4990.98,0.0046327770453877815
78,1515360.0,3.8594800000000005,9.523060000000001,4871.02,111.209,4991.76,0.0046327770453877815
79,1515360.0,3.72876,9.20053,4872.09,111.225,4992.52,0.0046327770453877815
80,1515360.0,3.60247,8.888919999999999,4873.12,111.24,4993.25,0.0046327770453877815
81,1515360.0,3.48046,8.58787,4874.11,111.255,4993.96,0.0046327770453877815
82,1515360.0,3.3625800000000003,8.29701,4875.07,111.26899999999999,4994.65,0.0046327770453877815
83,1515360.0,3.2486900000000003,8.016,4876.0,111.28299999999999,4995.31,0.0046327770453877815
84,1515360.0,3.13866,7.744510000000001,4876.9,111.29700000000001,4995.95,0.0046327770453877815
85,1515360.0,3.0323599999999997,7.48222,4877.77,111.31,4996.56,0.0046327770453877815
86,1515360.0,2.92965,7.2288,4878.6,111.322,4997.16,0.0046327770453877815
87,1515350.0,2.83043,6.983969999999999,4879.41,111.334,4997.73,0.0046393455652309346
88,1515350.0,2.7345599999999997,6.7474300000000005,4880.19,111.346,4998.29,0.0046393455652309346
89,1515350.0,2.64194,6.5189,4880.95,111.35700000000001,4998.83,0.0046393455652309346
90,1515350.0,2.55246,6.29812,4881.68,111.368,4999.35,0.0046393455652309346
91,1515350.0,2.46601,6.08481,4882.38,111.37799999999999,4999.85,0.0046393455652309346
92,1515350.0,2.38249,5.8787199999999995,4883.06,111.38799999999999,5000.33,0.0046393455652309346
93,1515350.0,2.3018,5.67961,4883.72,111.398,5000.8,0.0046393455652309346
94,1515350.0,2.22384,5.48725,4884.36,111.40799999999999,5001.25,0.0046393455652309346
95,1515350.0,2.14852,5.3014,4884.97,111.417,5001.69,0.0046393455652309346
96,1515350.0,2.07575,5.12185,4885.56,111.426,5002.11,0.0046393455652309346
97,1515350.0,2.00544,4.94837,4886.14,111.434,5002.52,0.0046393455652309346
98,1515350.0,1.9375200000000001,4.78078,4886.69,111.44200000000001,5002.92,0.0046393455652309346
99,1515350.0,1.87189,4.61886,4887.23,111.45,5003.3,0.0046393455652309346
100,1515350.0,1.8084900000000002,4.46242,4887.74,111.458,5003.66,0.0046393455652309346
101,1515350.0,1.7472400000000001,4.31128,4888.24,111.46600000000001,5004.02,0.0046393455652309346
102,1515350.0,1.68806,4.16526,4888.72,111.473,5004.36,0.0046393455652309346
103,1515340.0,1.63089,4.02418,4889.19,111.48,5004.7,0.004645914085074199
104,1515340.0,1.57565,3.88789,4889.64,111.486,5005.02,0.004645914085074199
105,1515340.0,1.5222799999999999,3.75621,4890.08,111.493,5005.33,0.004645914085074199
106,1515340.0,1.47072,3.62899,4890.5,111.499,5005.62,0.004645914085074199
107,1515340.0,1.4209100000000001,3.5060800000000003,4890.9,111.505,5005.91,0.004645914085074199
108,1515340.0,1.37279,3.3873300000000004,4891.29,111.51100000000001,5006.19,0.004645914085074199
109,1515340.0,1.32629,3.2726,4891.67,111.51700000000001,5006.46,0.004645914085074199
110,1515340.0,1.2813700000000001,3.1617599999999997,4892.04,111.522,5006.72,0.004645914085074199
111,1515340.0,1.23797,3.05467,4892.39,111.527,5006.98,0.004645914085074199
112,1515340.0,1.19604,2.9512099999999997,4892.73,111.53200000000001,5007.22,0.004645914085074199
113,1515340.0,1.15553,2.85125,4893.07,111.537,5007.45,0.004645914085074199
114,1515340.0,1.11639,2.75468,4893.38,111.542,5007.68,0.004645914085074199
115,1515340.0,1.0785799999999999,2.66138,4893.69,111.54700000000001,5007.9,0.004645914085074199
116,1515340.0,1.04205,2.57124,4893.99,111.551,5008.11,0.004645914085074199
117,1515340.0,1.00675,2.4841599999999997,4894.28,111.555,5008.32,0.004645914085074199
118,1515340.0,0.972656,2.40002,4894.56,111.56,5008.52,0.004645914085074199
119,1515340.0,0.9397120000000001,2.31873,4894.82,111.564,5008.71,0.004645914085074199
120,1515340.0,0.907884,2.2402,4895.08,111.56700000000001,5008.89,0.004645914085074199
121,1515340.0,0.877134,2.16432,4895.33,111.571,5009.07,0.004645914085074199
122,1515340.0,0.847426,2.09102,4895.58,111.575,5009.24,0.004645914085074199
123,1515340.0,0.818723,2.02019,4895.81,111.57799999999999,5009.41,0.004645914085074199
124,1515340.0,0.7909930000000001,1.95177,4896.04,111.58200000000001,5009.57,0.004645914085074199
125,1515340.0,0.764202,1.88566,4896.25,111.585,5009.73,0.004645914085074199
126,1515340.0,0.738319,1.8218,4896.47,111.588,5009.88,0.004645914085074199
127,1515340.0,0.713312,1.7600900000000002,4896.67,111.59100000000001,5010.02,0.004645914085074199
128,1515340.0,0.6891520000000001,1.70048,4896.87,111.594,5010.16,0.004645914085074199
129,1515340.0,0.6658109999999999,1.64288,4897.06,111.59700000000001,5010.3,0.004645914085074199
130,1515340.0,0.64326,1.58724,4897.24,111.59899999999999,5010.43,0.004645914085074199
131,1515340.0,0.6214729999999999,1.53348,4897.42,111.602,5010.55,0.004645914085074199
132,1515340.0,0.6004229999999999,1.4815399999999999,4897.59,111.605,5010.68,0.004645914085074199
133,1515340.0,0.580087,1.43136,4897.76,111.60700000000001,5010.79,0.004645914085074199
134,1515340.0,0.560439,1.3828799999999999,4897.92,111.61,5010.91,0.004645914085074199
135,1515340.0,0.541457,1.33604,4898.07,111.61200000000001,5011.02,0.004645914085074199
136,1515340.0,0.5231180000000001,1.2907899999999999,4898.22,111.61399999999999,5011.12,0.004645914085074199
137,1515340.0,0.5054,1.2470700000000001,4898.36,111.616,5011.23,0.004645914085074199
138,1515340.0,0.488282,1.2048299999999998,4898.5,111.618,5011.33,0.004645914085074199
139,1515340.0,0.47174399999999994,1.16403,4898.64,111.62,5011.42,0.004645914085074199
140,1515340.0,0.455766,1.1246,4898.77,111.62200000000001,5011.51,0.004645914085074199
141,1515340.0,0.44032899999999997,1.08651,4898.9,111.624,5011.6,0.004645914085074199
142,1515330.0,0.425415,1.0497100000000001,4899.02,111.626,5011.69,0.004652482604917352
143,1515330.0,0.41100600000000004,1.01416,4899.13,111.62799999999999,5011.77,0.004652482604917352
144,1515330.0,0.397086,0.979808,4899.25,111.62899999999999,5011.86,0.004652482604917352
145,1515330.0,0.38363600000000003,0.946622,4899.36,111.631,5011.93,0.004652482604917352
146,1515330.0,0.370643,0.91456,4899.46,111.633,5012.01,0.004652482604917352
147,1515330.0,0.358089,0.883584,4899.57,111.634,5012.08,0.004652482604917352
148,1515330.0,0.34596,0.853657,4899.66,111.63600000000001,5012.15,0.004652482604917352
149,1515330.0,0.33424299999999996,0.824744,4899.76,111.637,5012.22,0.004652482604917352
150,1515330.0,0.322922,0.79681,4899.85,111.63799999999999,5012.29,0.004652482604917352
151,1515330.0,0.31198400000000004,0.769822,4899.94,111.64,5012.35,0.004652482604917352
152,1515330.0,0.30141799999999996,0.743748,4900.03,111.641,5012.41,0.004652482604917352
153,1515330.0,0.291209,0.718557,4900.11,111.64200000000001,5012.47,0.004652482604917352
154,1515330.0,0.28134499999999996,0.6942189999999999,4900.19,111.64299999999999,5012.53,0.004652482604917352
155,1515330.0,0.271816,0.670706,4900.27,111.645,5012.58,0.004652482604917352
156,1515330.0,0.26261,0.647989,4900.34,111.646,5012.64,0.004652482604917352
157,1515330.0,0.253715,0.626042,4900.42,111.647,5012.69,0.004652482604917352
158,1515330.0,0.24512199999999998,0.604838,4900.49,111.648,5012.74,0.004652482604917352
159,1515330.0,0.236819,0.5843520000000001,4900.55,111.649,5012.79,0.004652482604917352
160,1515330.0,0.228798,0.5645600000000001,4900.62,111.65,5012.83,0.004652482604917352
161,1515330.0,0.22104899999999997,0.545438,4900.68,111.65100000000001,5012.88,0.004652482604917352
162,1515330.0,0.213562,0.526964,4900.74,111.652,5012.92,0.004652482604917352
163,1515330.0,0.20632899999999998,0.509116,4900.8,111.65299999999999,5012.96,0.004652482604917352
164,1515330.0,0.19934000000000002,0.49187200000000003,4900.86,111.65299999999999,5013.0,0.004652482604917352
165,1515330.0,0.192589,0.47521199999999997,4900.91,111.654,5013.04,0.004652482604917352
166,1515330.0,0.186066,0.459117,4900.97,111.655,5013.08,0.004652482604917352
167,1515330.0,0.179763,0.443567,4901.02,111.656,5013.12,0.004652482604917352
168,1515330.0,0.173675,0.428543,4901.07,111.656,5013.15,0.004652482604917352
169,1515330.0,0.167792,0.41402799999999995,4901.12,111.65700000000001,5013.19,0.004652482604917352
170,1515330.0,0.162109,0.400005,4901.16,111.65799999999999,5013.22,0.004652482604917352
171,1515330.0,0.156619,0.386457,4901.21,111.65899999999999,5013.25,0.004652482604917352
172,1515330.0,0.151314,0.373368,4901.25,111.65899999999999,5013.28,0.004652482604917352
173,1515330.0,0.146189,0.360722,4901.29,111.66,5013.31,0.004652482604917352
174,1515330.0,0.141238,0.348504,4901.33,111.66,5013.34,0.004652482604917352
175,1515330.0,0.136454,0.3367,4901.37,111.661,5013.37,0.004652482604917352
176,1515330.0,0.131832,0.32529600000000003,4901.41,111.662,5013.39,0.004652482604917352
177,1515330.0,0.127367,0.314278,4901.45,111.662,5013.42,0.004652482604917352
178,1515330.0,0.123053,0.303634,4901.48,111.663,5013.45,0.004652482604917352
179,1515330.0,0.11888499999999999,0.29334899999999997,4901.52,111.663,5013.47,0.004652482604917352
180,1515330.0,0.11485899999999999,0.283414,4901.55,111.664,5013.49,0.004652482604917352
181,1515330.0,0.11096800000000001,0.273814,4901.58,111.664,5013.52,0.004652482604917352
182,1515330.0,0.10720999999999999,0.26454,4901.61,111.665,5013.54,0.004652482604917352
183,1515330.0,0.10357899999999999,0.25558000000000003,4901.64,111.665,5013.56,0.004652482604917352
184,1515330.0,0.10007,0.24692399999999998,4901.67,111.665,5013.58,0.004652482604917352
185,1515330.0,0.0966809,0.23856,4901.7,111.666,5013.6,0.004652482604917352
186,1515330.0,0.0934063,0.23048000000000002,4901.72,111.666,5013.62,0.004652482604917352
187,1515330.0,0.0902426,0.22267399999999998,4901.75,111.667,5013.64,0.004652482604917352
188,1515330.0,0.08718610000000002,0.21513200000000002,4901.77,111.667,5013.65,0.004652482604917352
189,1515330.0,0.0842331,0.20784499999999997,4901.8,111.667,5013.67,0.004652482604917352
190,1515330.0,0.08138010000000001,0.20080599999999998,4901.82,111.66799999999999,5013.69,0.004652482604917352
191,1515330.0,0.07862380000000001,0.194004,4901.84,111.66799999999999,5013.7,0.004652482604917352
192,1515330.0,0.07596080000000001,0.187433,4901.87,111.66799999999999,5013.72,0.004652482604917352
193,1515330.0,0.073388,0.181085,4901.89,111.669,5013.73,0.004652482604917352
194,1515330.0,0.0709023,0.174952,4901.91,111.669,5013.75,0.004652482604917352
195,1515330.0,0.0685008,0.169026,4901.93,111.669,5013.76,0.004652482604917352
196,1515330.0,0.0661807,0.163301,4901.94,111.67,5013.78,0.004652482604917352
197,1515330.0,0.06393919999999999,0.15777,4901.96,111.67,5013.79,0.004652482604917352
198,1515330.0,0.0617735,0.152426,4901.98,111.67,5013.8,0.004652482604917352
199,1515330.0,0.059681200000000004,0.147264,4902.0,111.67,5013.81,0.004652482604917352
200,1515330.0,0.057659800000000004,0.14227599999999999,4902.01,111.671,5013.83,0.004652482604917352
201,1515330.0,0.0557069,0.137457,4902.03,111.671,5013.84,0.004652482604917352
202,1515330.0,0.0538201,0.132801,4902.05,111.671,5013.85,0.004652482604917352
203,1515330.0,0.0519972,0.128303,4902.06,111.671,5013.86,0.004652482604917352
204,1515330.0,0.050236,0.123958,4902.07,111.671,5013.87,0.004652482604917352
205,1515330.0,0.0485345,0.11975899999999999,4902.09,111.67200000000001,5013.88,0.004652482604917352
206,1515330.0,0.0468907,0.115703,4902.1,111.67200000000001,5013.89,0.004652482604917352
207,1515330.0,0.045302499999999996,0.111784,4902.12,111.67200000000001,5013.9,0.004652482604917352
208,1515330.0,0.0437681,0.107998,4902.13,111.67200000000001,5013.91,0.004652482604917352
209,1515330.0,0.0422856,0.10434,4902.14,111.67200000000001,5013.91,0.004652482604917352
210,1515330.0,0.0408534,0.10080599999999999,4902.15,111.67299999999999,5013.92,0.004652482604917352
211,1515330.0,0.039469699999999996,0.0973917,4902.16,111.67299999999999,5013.93,0.004652482604917352
212,1515330.0,0.0381329,0.094093,4902.17,111.67299999999999,5013.94,0.004652482604917352
213,1515330.0,0.0368413,0.090906,4902.18,111.67299999999999,5013.95,0.004652482604917352
214,1515330.0,0.0355935,0.087827,4902.19,111.67299999999999,5013.95,0.004652482604917352
215,1515330.0,0.0343879,0.0848523,4902.2,111.67299999999999,5013.96,0.004652482604917352
216,1515330.0,0.033223199999999994,0.08197839999999999,4902.21,111.67399999999999,5013.97,0.004652482604917352
217,1515330.0,0.032097900000000006,0.0792018,4902.22,111.67399999999999,5013.97,0.004652482604917352
218,1515330.0,0.0310108,0.0765192,4902.23,111.67399999999999,5013.98,0.004652482604917352
219,1515330.0,0.029960400000000005,0.0739275,4902.24,111.67399999999999,5013.99,0.004652482604917352
220,1515330.0,0.028945699999999998,0.0714235,4902.25,111.67399999999999,5013.99,0.004652482604917352
221,1515330.0,0.027965300000000002,0.0690044,4902.26,111.67399999999999,5014.0,0.004652482604917352
222,1515330.0,0.0270181,0.0666672,4902.26,111.67399999999999,5014.0,0.004652482604917352
223,1515330.0,0.026102999999999998,0.0644092,4902.27,111.67399999999999,5014.01,0.004652482604917352
224,1515330.0,0.025218900000000002,0.062227599999999994,4902.28,111.67399999999999,5014.01,0.004652482604917352
225,1515330.0,0.024364700000000003,0.06012000000000001,4902.29,111.675,5014.02,0.004652482604917352
226,1515330.0,0.0235395,0.0580837,4902.29,111.675,5014.02,0.004652482604917352
227,1515330.0,0.0227422,0.0561164,4902.3,111.675,5014.03,0.004652482604917352
228,1515330.0,0.021971900000000003,0.05421569999999999,4902.31,111.675,5014.03,0.004652482604917352
229,1515330.0,0.021227700000000002,0.0523794,4902.31,111.675,5014.04,0.004652482604917352
230,1515330.0,0.0205087,0.050605300000000006,4902.32,111.675,5014.04,0.004652482604917352
231,1515330.0,0.019814099999999998,0.0488913,4902.32,111.675,5014.04,0.004652482604917352
232,1515330.0,0.019143,0.047235400000000004,4902.33,111.675,5014.05,0.004652482604917352
233,1515330.0,0.0184946,0.0456355,4902.33,111.675,5014.05,0.004652482604917352
234,1515330.0,0.0178682,0.044089800000000005,4902.34,111.675,5014.06,0.004652482604917352
235,1515330.0,0.017263,0.042596499999999995,4902.34,111.675,5014.06,0.004652482604917352
236,1515330.0,0.0166783,0.041153699999999994,4902.35,111.676,5014.06,0.004652482604917352
237,1515330.0,0.0161134,0.0397599,4902.35,111.676,5014.07,0.004652482604917352
238,1515330.0,0.015567600000000001,0.038413199999999995,4902.36,111.676,5014.07,0.004652482604917352
239,1515330.0,0.015040399999999999,0.037112099999999995,4902.36,111.676,5014.07,0.004652482604917352
240,1515330.0,0.0145309,0.0358551,4902.37,111.676,5014.08,0.004652482604917352
241,1515330.0,0.0140388,0.034640699999999996,4902.37,111.676,5014.08,0.004652482604917352
242,1515330.0,0.013563299999999999,0.0334674,4902.37,111.676,5014.08,0.004652482604917352
243,1515330.0,0.013103899999999998,0.0323339,4902.38,111.676,5014.08,0.004652482604917352
244,1515330.0,0.0126601,0.0312387,4902.38,111.676,5014.09,0.004652482604917352
245,1515330.0,0.012231299999999999,0.0301807,4902.38,111.676,5014.09,0.004652482604917352
246,1515330.0,0.011817,0.0291584,4902.39,111.676,5014.09,0.004652482604917352
247,1515330.0,0.0114167,0.028170799999999996,4902.39,111.676,5014.09,0.004652482604917352
248,1515330.0,0.011030100000000001,0.027216700000000003,4902.39,111.676,5014.1,0.004652482604917352
249,1515330.0,0.0106565,0.0262949,4902.4,111.676,5014.1,0.004652482604917352
250,1515330.0,0.010295499999999999,0.0254043,4902.4,111.676,5014.1,0.004652482604917352
251,1515330.0,0.00994681,0.024543799999999998,4902.4,111.676,5014.1,0.004652482604917352
252,1515330.0,0.00960991,0.0237125,4902.41,111.676,5014.1,0.004652482604917352
253,1515330.0,0.00928443,0.022909400000000003,4902.41,111.676,5014.11,0.004652482604917352
254,1515330.0,0.00896996,0.0221334,4902.41,111.676,5014.11,0.004652482604917352
255,1515330.0,0.00866615,0.021383799999999998,4902.41,111.677,5014.11,0.004652482604917352
256,1515330.0,0.00837262,0.0206595,4902.42,111.677,5014.11,0.004652482604917352
257,1515330.0,0.00808904,0.0199597,4902.42,111.677,5014.11,0.004652482604917352
258,1515330.0,0.00781506,0.0192837,4902.42,111.677,5014.11,0.004652482604917352
259,1515330.0,0.00755037,0.018630599999999997,4902.42,111.677,5014.12,0.004652482604917352
260,1515330.0,0.00729463,0.0179995,4902.42,111.677,5014.12,0.004652482604917352
261,1515330.0,0.00704756,0.0173899,4902.43,111.677,5014.12,0.004652482604917352
262,1515330.0,0.00680886,0.0168009,4902.43,111.677,5014.12,0.004652482604917352
263,1515330.0,0.00657824,0.016231799999999998,4902.43,111.677,5014.12,0.004652482604917352
264,1515330.0,0.00635544,0.0156821,4902.43,111.677,5014.12,0.004652482604917352
265,1515330.0,0.00614018,0.015150899999999998,4902.43,111.677,5014.12,0.004652482604917352
266,1515330.0,0.00593221,0.0146378,4902.44,111.677,5014.13,0.004652482604917352
267,1515330.0,0.00573129,0.014141999999999998,4902.44,111.677,5014.13,0.004652482604917352
268,1515330.0,0.00553717,0.013663,4902.44,111.677,5014.13,0.004652482604917352
269,1515330.0,0.00534962,0.0132002,4902.44,111.677,5014.13,0.004652482604917352
270,1515330.0,0.00516843,0.0127531,4902.44,111.677,5014.13,0.004652482604917352
271,1515330.0,0.00499337,0.012321200000000001,4902.44,111.677,5014.13,0.004652482604917352
272,1515330.0,0.00482425,0.0119039,4902.45,111.677,5014.13,0.004652482604917352
273,1515330.0,0.00466085,0.0115007,4902.45,111.677,5014.13,0.004652482604917352
274,1515330.0,0.00450299,0.0111111,4902.45,111.677,5014.13,0.004652482604917352
275,1515330.0,0.00435047,0.0107348,4902.45,111.677,5014.13,0.004652482604917352
276,1515330.0,0.00420312,0.0103712,4902.45,111.677,5014.14,0.004652482604917352
277,1515330.0,0.00406076,0.0100199,4902.45,111.677,5014.14,0.004652482604917352
278,1515330.0,0.00392322,0.00968056,4902.45,111.677,5014.14,0.004652482604917352
279,1515330.0,0.00379034,0.00935268,4902.45,111.677,5014.14,0.004652482604917352
280,1515330.0,0.00366196,0.0090359,4902.45,111.677,5014.14,0.004652482604917352
281,1515330.0,0.00353793,0.00872985,4902.46,111.677,5014.14,0.004652482604917352
282,1515330.0,0.0034181,0.00843417,4902.46,111.677,5014.14,0.004652482604917352
283,1515330.0,0.00330233,0.00814851,4902.46,111.677,5014.14,0.004652482604917352
284,1515330.0,0.00319048,0.00787251,4902.46,111.677,5014.14,0.004652482604917352
285,1515330.0,0.00308241,0.00760587,4902.46,111.677,5014.14,0.004652482604917352
286,1515330.0,0.00297801,0.00734826,4902.46,111.677,5014.14,0.004652482604917352
287,1515330.0,0.00287715,0.00709937,4902.46,111.677,5014.14,0.004652482604917352
288,1515330.0,0.0027796999999999995,0.00685892,4902.46,111.677,5014.14,0.004652482604917352
289,1515330.0,0.00268555,0.006626600000000001,4902.46,111.677,5014.14,0.004652482604917352
290,1515330.0,0.00259459,0.00640216,4902.46,111.677,5014.14,0.004652482604917352
291,1515330.0,0.00250671,0.00618532,4902.46,111.677,5014.15,0.004652482604917352
292,1515330.0,0.00242181,0.00597582,4902.46,111.677,5014.15,0.004652482604917352
293,1515330.0,0.00233978,0.00577342,4902.47,111.677,5014.15,0.004652482604917352
294,1515330.0,0.00226053,0.00557787,4902.47,111.677,5014.15,0.004652482604917352
295,1515330.0,0.00218397,0.00538895,4902.47,111.677,5014.15,0.004652482604917352
296,1515330.0,0.0021100000000000003,0.00520642,4902.47,111.677,5014.15,0.004652482604917352
297,1515330.0,0.00203853,0.00503008,4902.47,111.677,5014.15,0.004652482604917352
298,1515330.0,0.00196948,0.00485971,4902.47,111.677,5014.15,0.004652482604917352
299,1515330.0,0.00190278,0.00469511,4902.47,111.677,5014.15,0.004652482604917352
