,Susceptible,Asymptomatic,Infected,Recovered,Deceased,I_c,IA_cumulative
0,1516870.0,155.017,467.251,3714.59,91.7799,4274.09,0.00364093054906911
1,1516810.0,153.707,464.027,3763.74,92.93,4321.16,0.00368034166812814
2,1516750.0,152.464,460.765,3812.55,94.0721,4367.85,0.0037197527871871694
3,1516690.0,151.27,457.485,3861.02,95.2061,4414.17,0.003759163906246199
4,1516630.0,150.11,454.20099999999996,3909.14,96.33200000000001,4460.13,0.0037985750253052286
5,1516570.0,148.975,450.92199999999997,3956.91,97.4498,4505.74,0.0038379861443642582
6,1516510.0,147.859,447.654,4004.34,98.5595,4551.0,0.003877397263423288
7,1516450.0,146.759,444.399,4051.42,99.6611,4595.93,0.0039168083824823174
8,1516390.0,145.671,441.162,4098.16,100.755,4640.52,0.003956219501541347
9,1516330.0,144.594,437.944,4144.56,101.84,4684.78,0.003995630620600377
10,1516270.0,143.526,434.745,4190.62,102.91799999999999,4728.72,0.004035041739659295
11,1516220.0,142.467,431.566,4236.35,103.988,4772.33,0.004067884338875172
12,1516160.0,141.417,428.408,4281.74,105.05,4815.62,0.004107295457934201
13,1516100.0,140.374,425.27,4326.79,106.104,4858.59,0.004146706576993231
14,1516050.0,139.339,422.154,4371.52,107.15100000000001,4901.25,0.0041795491762091075
15,1515990.0,138.312,419.059,4415.92,108.19,4943.59,0.004218960295268137
16,1515930.0,137.291,415.98400000000004,4459.99,109.221,4985.62,0.004258371414327167
17,1515880.0,136.278,412.931,4503.74,110.245,5027.33,0.004291214013542932
18,1515820.0,135.27200000000002,409.898,4547.17,111.26100000000001,5068.74,0.004330625132601962
19,1515770.0,134.273,406.88599999999997,4590.28,112.26899999999999,5109.85,0.004363467731817838
20,1515720.0,133.281,403.894,4633.08,113.271,5150.65,0.004396310331033715
21,1515660.0,132.296,400.92400000000004,4675.56,114.265,5191.15,0.004435721450092744
22,1515610.0,131.317,397.973,4717.72,115.251,5231.35,0.00446856404930851
23,1515560.0,130.346,395.043,4759.58,116.23100000000001,5271.25,0.004501406648524386
24,1515500.0,129.381,392.13300000000004,4801.13,117.20299999999999,5310.86,0.004540817767583416
25,1515450.0,128.423,389.24300000000005,4842.37,118.16799999999999,5350.17,0.0045736603667992926
26,1515400.0,127.47200000000001,386.37300000000005,4883.3,119.126,5389.19,0.004606502966015169
27,1515350.0,126.527,383.523,4923.94,120.07600000000001,5427.92,0.0046393455652309346
28,1515300.0,125.589,380.69199999999995,4964.28,121.02,5466.37,0.004672188164446811
29,1515250.0,124.65799999999999,377.881,5004.31,121.95700000000001,5504.53,0.004705030763662688
30,1515200.0,123.73299999999999,375.09,5044.06,122.887,5542.41,0.004737873362878564
31,1515150.0,122.814,372.31800000000004,5083.5,123.81,5580.01,0.004770715962094441
32,1515100.0,121.902,369.565,5122.66,124.726,5617.32,0.004803558561310206
33,1515050.0,120.99600000000001,366.832,5161.53,125.635,5654.36,0.004836401160526083
34,1515000.0,120.09700000000001,364.11699999999996,5200.11,126.538,5691.13,0.004869243759741959
35,1514950.0,119.204,361.421,5238.4,127.434,5727.62,0.004902086358957836
36,1514910.0,118.31700000000001,358.744,5276.41,128.32399999999998,5763.84,0.004928360438330448
37,1514860.0,117.43700000000001,356.086,5314.14,129.20600000000002,5799.79,0.0049612030375463245
38,1514810.0,116.56299999999999,353.44599999999997,5351.59,130.083,5835.48,0.004994045636762201
39,1514760.0,115.695,350.825,5388.76,130.952,5870.89,0.0050268882359779665
40,1514720.0,114.833,348.222,5425.66,131.816,5906.05,0.00505316231535069
41,1514670.0,113.977,345.63800000000003,5462.28,132.672,5940.94,0.0050860049145665664
42,1514630.0,113.12700000000001,343.07099999999997,5498.63,133.523,5975.57,0.005112278993939179
43,1514580.0,112.28299999999999,340.523,5534.71,134.36700000000002,6009.95,0.005145121593155055
44,1514540.0,111.445,337.99199999999996,5570.53,135.205,6044.06,0.005171395672527779
45,1514490.0,110.613,335.47900000000004,5606.07,136.037,6077.93,0.005204238271743655
46,1514450.0,109.787,332.98400000000004,5641.35,136.862,6111.53,0.005230512351116268
47,1514400.0,108.96700000000001,330.50699999999995,5676.37,137.68200000000002,6144.89,0.005263354950332144
48,1514360.0,108.15299999999999,328.046,5711.13,138.495,6178.0,0.005289629029704868
49,1514310.0,107.345,325.60400000000004,5745.63,139.30200000000002,6210.87,0.005322471628920633
50,1514270.0,106.542,323.178,5779.88,140.10399999999998,6243.48,0.0053487457082933565
51,1514230.0,105.745,320.77,5813.86,140.899,6275.85,0.00537501978766608
52,1514190.0,104.954,318.378,5847.6,141.688,6307.98,0.005401293867038692
53,1514140.0,104.16799999999999,316.004,5881.08,142.472,6339.87,0.005434136466254569
54,1514100.0,103.38799999999999,313.64599999999996,5914.31,143.249,6371.52,0.005460410545627292
55,1514060.0,102.613,311.305,5947.3,144.02100000000002,6402.94,0.005486684624999905
56,1514020.0,101.844,308.981,5980.04,144.787,6434.12,0.005512958704372628
57,1513980.0,101.081,306.673,6012.53,145.547,6465.06,0.00553923278374524
58,1513940.0,100.323,304.382,6044.79,146.30200000000002,6495.77,0.005565506863117964
59,1513900.0,99.5703,302.107,6076.8,147.05100000000002,6526.26,0.005591780942490687
60,1513860.0,98.8232,299.848,6108.57,147.79399999999998,6556.51,0.0056180550218633
61,1513820.0,98.0814,297.605,6140.1,148.532,6586.54,0.005644329101236023
62,1513780.0,97.3449,295.378,6171.4,149.264,6616.34,0.0056706031806086354
63,1513740.0,96.6137,293.16700000000003,6202.46,149.991,6645.92,0.005696877259981359
64,1513700.0,95.8878,290.972,6233.29,150.713,6675.27,0.005723151339354082
65,1513660.0,95.1671,288.793,6263.89,151.429,6704.41,0.005749425418726695
66,1513620.0,94.4516,286.629,6294.27,152.139,6733.32,0.005775699498099418
67,1513590.0,93.7413,284.481,6324.41,152.845,6762.02,0.005795405057628877
68,1513550.0,93.036,282.348,6354.33,153.545,6790.5,0.005821679137001601
69,1513510.0,92.3359,280.23,6384.02,154.239,6818.77,0.005847953216374324
70,1513470.0,91.6408,278.127,6413.49,154.929,6846.83,0.005874227295746937
71,1513440.0,90.9508,276.04,6442.74,155.613,6874.67,0.005893932855276507
72,1513400.0,90.2657,273.967,6471.77,156.292,6902.3,0.005920206934649119
73,1513360.0,89.5856,271.91,6500.58,156.967,6929.73,0.005946481014021843
74,1513330.0,88.9104,269.867,6529.18,157.636,6956.95,0.005966186573551302
75,1513290.0,88.2401,267.839,6557.56,158.3,6983.96,0.005992460652924025
76,1513260.0,87.5747,265.825,6585.72,158.959,7010.77,0.006012166212453485
77,1513220.0,86.9141,263.82599999999996,6613.68,159.613,7037.38,0.006038440291826208
78,1513190.0,86.2583,261.842,6641.42,160.262,7063.79,0.006058145851355667
79,1513150.0,85.6072,259.871,6668.96,160.906,7090.0,0.006084419930728391
80,1513120.0,84.9609,257.915,6696.29,161.546,7116.01,0.00610412549025785
81,1513080.0,84.3193,255.97400000000002,6723.41,162.18,7141.82,0.0061303995696305735
82,1513050.0,83.6823,254.046,6750.33,162.81,7167.44,0.006150105129160144
83,1513020.0,83.05,252.132,6777.05,163.435,7192.87,0.006169810688689603
84,1512980.0,82.4223,250.232,6803.56,164.05599999999998,7218.1,0.0061960847680623266
85,1512950.0,81.7991,248.345,6829.88,164.672,7243.14,0.006215790327591786
86,1512920.0,81.1805,246.47299999999998,6856.0,165.283,7268.0,0.006235495887121245
87,1512890.0,80.5665,244.614,6881.92,165.889,7292.66,0.0062552014466508155
88,1512850.0,79.9569,242.768,6907.64,166.49099999999999,7317.14,0.006281475526023539
89,1512820.0,79.3517,240.93599999999998,6933.17,167.088,7341.44,0.006301181085552998
90,1512790.0,78.751,239.11700000000002,6958.51,167.68099999999998,7365.54,0.0063208866450824575
91,1512760.0,78.1547,237.312,6983.65,168.27,7389.47,0.006340592204612028
92,1512730.0,77.5627,235.519,7008.61,168.85299999999998,7413.22,0.006360297764141487
93,1512690.0,76.9751,233.74,7033.38,169.433,7436.78,0.0063865718435142105
94,1512660.0,76.3917,231.97299999999998,7057.96,170.00799999999998,7460.17,0.00640627740304367
95,1512630.0,75.8127,230.21900000000002,7082.35,170.579,7483.38,0.00642598296257324
96,1512600.0,75.2379,228.479,7106.56,171.145,7506.42,0.006445688522102699
97,1512570.0,74.6673,226.75,7130.59,171.708,7529.28,0.00646539408163227
98,1512540.0,74.1009,225.035,7154.44,172.265,7551.96,0.006485099641161729
99,1512510.0,73.5386,223.332,7178.1,172.81900000000002,7574.48,0.006504805200691299
100,1512480.0,72.9805,221.641,7201.59,173.36900000000003,7596.82,0.006524510760220759
101,1512450.0,72.4265,219.963,7224.89,173.91400000000002,7618.99,0.006544216319750329
102,1512420.0,71.8766,218.297,7248.03,174.455,7641.0,0.006563921879279788
103,1512400.0,71.3307,216.644,7270.98,174.99200000000002,7662.84,0.006577058918966094
104,1512370.0,70.7888,215.002,7293.77,175.52599999999998,7684.51,0.006596764478495665
105,1512340.0,70.2509,213.372,7316.38,176.055,7706.02,0.006616470038025124
106,1512310.0,69.717,211.755,7338.81,176.58,7727.36,0.006636175597554694
107,1512280.0,69.187,210.149,7361.08,177.101,7748.54,0.006655881157084154
108,1512260.0,68.661,208.555,7383.18,177.618,7769.56,0.006669018196770571
109,1512230.0,68.1388,206.97299999999998,7405.11,178.13099999999997,7790.42,0.00668872375630003
110,1512200.0,67.6205,205.40200000000002,7426.88,178.64,7811.13,0.006708429315829489
111,1512170.0,67.1059,203.843,7448.48,179.146,7831.67,0.00672813487535906
112,1512150.0,66.5952,202.295,7469.91,179.64700000000002,7852.06,0.006741271915045366
113,1512120.0,66.0883,200.75900000000001,7491.19,180.145,7872.29,0.006760977474574936
114,1512090.0,65.5851,199.234,7512.3,180.639,7892.37,0.0067806830341043955
115,1512070.0,65.0857,197.72,7533.25,181.12900000000002,7912.3,0.006793820073790702
116,1512040.0,64.5899,196.218,7554.04,181.61599999999999,7932.07,0.006813525633320272
117,1512010.0,64.0979,194.726,7574.68,182.09799999999998,7951.7,0.006833231192849731
118,1511990.0,63.6094,193.24599999999998,7595.16,182.577,7971.17,0.006846368232536149
119,1511960.0,63.1246,191.77599999999998,7615.48,183.053,7990.5,0.006866073792065608
120,1511940.0,62.6434,190.317,7635.64,183.525,8009.68,0.006879210831751914
121,1511910.0,62.1657,188.86900000000003,7655.66,183.993,8028.71,0.006898916391281484
122,1511890.0,61.6916,187.43200000000002,7675.52,184.458,8047.6,0.006912053430967791
123,1511860.0,61.221000000000004,186.00599999999997,7695.23,184.919,8066.34,0.006931758990497361
124,1511840.0,60.754,184.58900000000003,7714.79,185.377,8084.94,0.006944896030183667
125,1511810.0,60.2903,183.18400000000003,7734.2,185.831,8103.4,0.006964601589713126
126,1511790.0,59.8302,181.78900000000002,7753.46,186.282,8121.72,0.006977738629399544
127,1511770.0,59.3734,180.40400000000002,7772.58,186.729,8139.89,0.00699087566908585
128,1511740.0,58.9201,179.02900000000002,7791.55,187.173,8157.93,0.007010581228615309
129,1511720.0,58.4701,177.665,7810.38,187.613,8175.83,0.007023718268301726
130,1511690.0,58.0235,176.31099999999998,7829.06,188.05,8193.6,0.007043423827831186
131,1511670.0,57.5802,174.96599999999998,7847.6,188.484,8211.23,0.007056560867517603
132,1511650.0,57.1402,173.632,7866.0,188.915,8228.72,0.007069697907203909
133,1511630.0,56.7035,172.308,7884.26,189.342,8246.08,0.007082834946890215
134,1511600.0,56.27,170.993,7902.38,189.766,8263.31,0.0071025405064197855
135,1511580.0,55.8398,169.688,7920.36,190.187,8280.41,0.007115677546106092
136,1511560.0,55.4128,168.393,7938.21,190.604,8297.37,0.007128814585792398
137,1511540.0,54.989,167.108,7955.91,191.018,8314.21,0.007141951625478815
138,1511510.0,54.5684,165.832,7973.49,191.43,8330.91,0.007161657185008274
139,1511490.0,54.1509,164.56599999999997,7990.93,191.838,8347.49,0.007174794224694581
140,1511470.0,53.7365,163.309,8008.23,192.243,8363.95,0.007187931264380998
141,1511450.0,53.3252,162.061,8025.4,192.644,8380.27,0.007201068304067304
142,1511430.0,52.917,160.82299999999998,8042.45,193.043,8396.47,0.00721420534375361
143,1511410.0,52.5118,159.594,8059.36,193.43900000000002,8412.55,0.0072273423834400274
144,1511380.0,52.1097,158.374,8076.14,193.832,8428.5,0.007247047942969487
145,1511360.0,51.7106,157.16299999999998,8092.79,194.22099999999998,8444.34,0.007260184982655793
146,1511340.0,51.3145,155.961,8109.32,194.608,8460.05,0.00727332202234221
147,1511320.0,50.9213,154.769,8125.72,194.99200000000002,8475.64,0.007286459062028516
148,1511300.0,50.5311,153.585,8142.0,195.372,8491.11,0.0072995961017148225
149,1511280.0,50.1438,152.41,8158.15,195.75,8506.46,0.007312733141401129
150,1511260.0,49.7595,151.243,8174.17,196.125,8521.69,0.007325870181087546
151,1511240.0,49.378,150.086,8190.08,196.497,8536.81,0.007339007220773852
152,1511220.0,48.9993,148.937,8205.86,196.86700000000002,8551.81,0.007352144260460158
153,1511200.0,48.6236,147.797,8221.52,197.233,8566.7,0.0073652813001465756
154,1511180.0,48.2506,146.665,8237.06,197.597,8581.47,0.007378418339832882
155,1511160.0,47.8805,145.542,8252.49,197.958,8596.13,0.007391555379519188
156,1511140.0,47.5131,144.42700000000002,8267.79,198.31599999999997,8610.68,0.007404692419205605
157,1511120.0,47.1485,143.321,8282.98,198.671,8625.12,0.007417829458891911
158,1511110.0,46.7866,142.222,8298.05,199.024,8639.44,0.0074243979787350645
159,1511090.0,46.4275,141.132,8313.01,199.37400000000002,8653.65,0.007437535018421371
160,1511070.0,46.071000000000005,140.05100000000002,8327.85,199.72099999999998,8667.76,0.007450672058107788
161,1511050.0,45.7173,138.977,8342.58,200.06599999999997,8681.76,0.007463809097794094
162,1511030.0,45.3662,137.911,8357.19,200.408,8695.65,0.0074769461374804
163,1511010.0,45.0177,136.85399999999998,8371.69,200.747,8709.43,0.0074900831771668175
164,1511000.0,44.6719,135.804,8386.08,201.084,8723.11,0.007496651697009971
165,1510980.0,44.3287,134.762,8400.36,201.418,8736.68,0.007509788736696277
166,1510960.0,43.988,133.72899999999998,8414.53,201.74900000000002,8750.15,0.007522925776382583
167,1510940.0,43.65,132.702,8428.6,202.078,8763.51,0.007536062816069
168,1510920.0,43.3145,131.684,8442.55,202.405,8776.77,0.007549199855755306
169,1510910.0,42.9815,130.673,8456.4,202.729,8789.93,0.0075557683755984595
170,1510890.0,42.651,129.67,8470.14,203.05,8802.99,0.007568905415284766
171,1510870.0,42.3231,128.674,8483.78,203.36900000000003,8815.95,0.007582042454971183
172,1510860.0,41.9976,127.686,8497.31,203.68599999999998,8828.81,0.007588610974814336
173,1510840.0,41.6745,126.706,8510.73,204.0,8841.57,0.007601748014500642
174,1510820.0,41.354,125.73200000000001,8524.06,204.312,8854.23,0.007614885054187059
175,1510810.0,41.0358,124.766,8537.28,204.62099999999998,8866.79,0.0076214535740302125
176,1510790.0,40.72,123.80799999999999,8550.4,204.928,8879.26,0.007634590613716519
177,1510770.0,40.4067,122.85600000000001,8563.42,205.233,8891.63,0.007647727653402825
178,1510760.0,40.0957,121.912,8576.34,205.535,8903.91,0.007654296173245978
179,1510740.0,39.787,120.975,8589.16,205.835,8916.09,0.007667433212932395
180,1510720.0,39.4807,120.045,8601.88,206.13299999999998,8928.17,0.007680570252618701
181,1510710.0,39.1767,119.12200000000001,8614.5,206.428,8940.17,0.0076871387724618545
182,1510690.0,38.875,118.206,8627.03,206.72099999999998,8952.07,0.007700275812148161
183,1510680.0,38.5756,117.296,8639.46,207.012,8963.88,0.007706844331991425
184,1510660.0,38.2785,116.39399999999999,8651.79,207.301,8975.6,0.007719981371677731
185,1510650.0,37.9836,115.499,8664.03,207.58700000000002,8987.23,0.007726549891520884
186,1510630.0,37.6909,114.61,8676.18,207.87099999999998,8998.77,0.00773968693120719
187,1510620.0,37.4005,113.728,8688.23,208.153,9010.22,0.007746255451050454
188,1510600.0,37.1123,112.853,8700.19,208.433,9021.58,0.007759392490736761
189,1510590.0,36.8263,111.984,8712.05,208.71099999999998,9032.86,0.007765961010579914
190,1510570.0,36.5424,111.12200000000001,8723.83,208.986,9044.05,0.00777909805026622
191,1510560.0,36.2607,110.266,8735.51,209.26,9055.15,0.007785666570109373
192,1510540.0,35.9811,109.417,8747.11,209.53099999999998,9066.17,0.00779880360979579
193,1510530.0,35.7036,108.575,8758.62,209.8,9077.1,0.007805372129638943
194,1510510.0,35.4283,107.738,8770.03,210.067,9087.95,0.00781850916932525
195,1510500.0,35.1551,106.90799999999999,8781.36,210.332,9098.71,0.007825077689168403
196,1510490.0,34.8839,106.085,8792.6,210.595,9109.39,0.007831646209011667
197,1510470.0,34.6148,105.26700000000001,8803.76,210.856,9119.99,0.007844783248697973
198,1510460.0,34.3477,104.456,8814.83,211.115,9130.5,0.007851351768541126
199,1510440.0,34.0827,103.65100000000001,8825.81,211.372,9140.94,0.007864488808227432
200,1510430.0,33.8196,102.852,8836.71,211.627,9151.29,0.007871057328070585
201,1510420.0,33.5586,102.059,8847.53,211.88,9161.57,0.00787762584791385
202,1510400.0,33.2996,101.272,8858.26,212.132,9171.76,0.007890762887600156
203,1510390.0,33.0425,100.492,8868.91,212.38099999999997,9181.88,0.007897331407443309
204,1510380.0,32.7874,99.7166,8879.48,212.628,9191.92,0.007903899927286462
205,1510360.0,32.5343,98.9476,8889.96,212.873,9201.88,0.007917036966972879
206,1510350.0,32.283,98.1844,8900.37,213.11700000000002,9211.76,0.007923605486816032
207,1510340.0,32.0337,97.4269,8910.69,213.358,9221.57,0.007930174006659185
208,1510320.0,31.7863,96.6753,8920.93,213.59799999999998,9231.3,0.007943311046345491
209,1510310.0,31.5408,95.9294,8931.1,213.83599999999998,9240.96,0.007949879566188645
210,1510300.0,31.2971,95.1891,8941.19,214.072,9250.54,0.007956448086031798
211,1510290.0,31.0553,94.4545,8951.2,214.30599999999998,9260.05,0.007963016605875062
212,1510270.0,30.8154,93.7254,8961.13,214.53900000000002,9269.49,0.007976153645561368
213,1510260.0,30.5772,93.0019,8970.99,214.769,9278.85,0.007982722165404521
214,1510250.0,30.3409,92.2839,8980.76,214.998,9288.14,0.007989290685247674
215,1510240.0,30.1064,91.5714,8990.47,215.225,9297.36,0.007995859205090827
216,1510220.0,29.8737,90.8643,9000.1,215.45,9306.5,0.008008996244777244
217,1510210.0,29.6428,90.1626,9009.65,215.674,9315.58,0.008015564764620398
218,1510200.0,29.4136,89.4663,9019.13,215.896,9324.58,0.00802213328446355
219,1510190.0,29.1862,88.7752,9028.54,216.11599999999999,9333.52,0.008028701804306704
220,1510180.0,28.9605,88.0894,9037.88,216.334,9342.39,0.008035270324149857
221,1510170.0,28.7365,87.4089,9047.14,216.551,9351.19,0.00804183884399301
222,1510150.0,28.5142,86.7335,9056.33,216.766,9359.92,0.008054975883679427
223,1510140.0,28.2937,86.0633,9065.45,216.979,9368.58,0.00806154440352258
224,1510130.0,28.0748,85.3982,9074.5,217.19099999999997,9377.17,0.008068112923365733
225,1510120.0,27.8576,84.7382,9083.48,217.40099999999998,9385.7,0.008074681443208886
226,1510110.0,27.6421,84.0832,9092.39,217.61,9394.17,0.00808124996305204
227,1510100.0,27.4282,83.4332,9101.23,217.817,9402.57,0.008087818482895193
228,1510090.0,27.2159,82.7882,9110.01,218.02200000000002,9410.9,0.008094387002738457
229,1510080.0,27.0053,82.1481,9118.71,218.226,9419.17,0.00810095552258161
230,1510070.0,26.7963,81.5129,9127.35,218.428,9427.37,0.008107524042424763
231,1510050.0,26.5889,80.8825,9135.92,218.628,9435.51,0.00812066108211107
232,1510040.0,26.3831,80.257,9144.43,218.827,9443.59,0.008127229601954222
233,1510030.0,26.1788,79.6362,9152.86,219.025,9451.61,0.008133798121797486
234,1510020.0,25.9761,79.0202,9161.24,219.22099999999998,9459.56,0.00814036664164064
235,1510010.0,25.775,78.4089,9169.55,219.415,9467.45,0.008146935161483793
236,1510000.0,25.5754,77.8022,9177.79,219.608,9475.28,0.008153503681326946
237,1509990.0,25.3773,77.2003,9185.97,219.799,9483.05,0.008160072201170099
238,1509980.0,25.1808,76.6029,9194.09,219.989,9490.76,0.008166640721013252
239,1509970.0,24.9858,76.0101,9202.15,220.178,9498.41,0.008173209240856405
240,1509960.0,24.7922,75.4218,9210.14,220.365,9506.0,0.008179777760699669
241,1509950.0,24.6001,74.83800000000001,9218.07,220.55,9513.53,0.008186346280542822
242,1509940.0,24.4096,74.2587,9225.94,220.735,9521.01,0.008192914800385975
243,1509930.0,24.2204,73.6838,9233.75,220.917,9528.42,0.008199483320229128
244,1509920.0,24.0328,73.1133,9241.5,221.09900000000002,9535.78,0.008206051840072282
245,1509910.0,23.8465,72.5472,9249.18,221.278,9543.08,0.008212620359915435
246,1509900.0,23.6617,71.9855,9256.81,221.457,9550.33,0.008219188879758699
247,1509890.0,23.4783,71.428,9264.38,221.63400000000001,9557.52,0.008225757399601852
248,1509880.0,23.2963,70.8748,9271.89,221.81,9564.65,0.008232325919445005
249,1509870.0,23.1158,70.3259,9279.35,221.984,9571.73,0.008238894439288158
250,1509870.0,22.9366,69.7811,9286.74,222.157,9578.75,0.008238894439288158
251,1509860.0,22.7587,69.2406,9294.08,222.329,9585.72,0.008245462959131311
252,1509850.0,22.5823,68.7042,9301.36,222.49900000000002,9592.63,0.008252031478974464
253,1509840.0,22.4072,68.1718,9308.58,222.668,9599.49,0.008258599998817617
254,1509830.0,22.2334,67.6436,9315.75,222.83599999999998,9606.3,0.008265168518660881
255,1509820.0,22.061,67.1195,9322.86,223.002,9613.05,0.008271737038504035
256,1509810.0,21.8899,66.5993,9329.92,223.168,9619.76,0.008278305558347188
257,1509800.0,21.7201,66.0831,9336.93,223.331,9626.41,0.00828487407819034
258,1509790.0,21.5517,65.5709,9343.87,223.49400000000003,9633.0,0.008291442598033494
259,1509790.0,21.3845,65.0627,9350.77,223.655,9639.55,0.008291442598033494
260,1509780.0,21.2186,64.5583,9357.61,223.815,9646.05,0.008298011117876647
261,1509770.0,21.054000000000002,64.0578,9364.4,223.97400000000002,9652.5,0.008304579637719911
262,1509760.0,20.8906,63.5612,9371.14,224.132,9658.89,0.008311148157563064
263,1509750.0,20.7285,63.0684,9377.82,224.28799999999998,9665.24,0.008317716677406217
264,1509740.0,20.5677,62.5793,9384.45,224.44299999999998,9671.54,0.00832428519724937
265,1509730.0,20.4081,62.093999999999994,9391.03,224.597,9677.78,0.008330853717092523
266,1509730.0,20.2497,61.6125,9397.56,224.75,9683.98,0.008330853717092523
267,1509720.0,20.0925,61.1346,9404.04,224.90200000000002,9690.14,0.008337422236935677
268,1509710.0,19.9366,60.6604,9410.47,225.05200000000002,9696.24,0.00834399075677883
269,1509700.0,19.7818,60.1899,9416.85,225.201,9702.3,0.008350559276622094
270,1509690.0,19.6282,59.723,9423.17,225.34900000000002,9708.31,0.008357127796465247
271,1509690.0,19.4759,59.2596,9429.45,225.49599999999998,9714.27,0.008357127796465247
272,1509680.0,19.3247,58.7999,9435.69,225.642,9720.19,0.0083636963163084
273,1509670.0,19.1746,58.3436,9441.87,225.787,9726.06,0.008370264836151553
274,1509660.0,19.0257,57.8909,9448.0,225.93,9731.88,0.008376833355994706
275,1509660.0,18.878,57.4417,9454.09,226.07299999999998,9737.66,0.008376833355994706
276,1509650.0,18.7314,56.9959,9460.13,226.21400000000003,9743.4,0.00838340187583786
277,1509640.0,18.5859,56.5535,9466.12,226.354,9749.09,0.008389970395681012
278,1509630.0,18.4416,56.1146,9472.07,226.49400000000003,9754.73,0.008396538915524276
279,1509630.0,18.2983,55.678999999999995,9477.97,226.632,9760.34,0.008396538915524276
280,1509620.0,18.1562,55.2468,9483.83,226.769,9765.9,0.00840310743536743
281,1509610.0,18.0152,54.8179,9489.64,226.905,9771.41,0.008409675955210583
282,1509600.0,17.8752,54.3923,9495.4,227.03900000000002,9776.89,0.008416244475053736
283,1509600.0,17.7363,53.97,9501.12,227.173,9782.32,0.008416244475053736
284,1509590.0,17.5985,53.551,9506.79,227.30599999999998,9787.7,0.008422812994896889
285,1509580.0,17.4618,53.1351,9512.43,227.438,9793.05,0.008429381514740042
286,1509580.0,17.3261,52.7225,9518.01,227.56799999999998,9798.36,0.008429381514740042
287,1509570.0,17.1915,52.3131,9523.56,227.69799999999998,9803.62,0.008435950034583306
288,1509560.0,17.0579,51.9068,9529.06,227.827,9808.84,0.00844251855442646
289,1509550.0,16.9253,51.5036,9534.52,227.955,9814.02,0.008449087074269612
290,1509550.0,16.7938,51.1036,9539.93,228.081,9819.17,0.008449087074269612
291,1509540.0,16.6633,50.7066,9545.3,228.207,9824.27,0.008455655594112765
292,1509530.0,16.5337,50.3127,9550.64,228.332,9829.33,0.008462224113955918
293,1509530.0,16.4052,49.9219,9555.93,228.456,9834.35,0.008462224113955918
294,1509520.0,16.2777,49.534,9561.18,228.578,9839.34,0.008468792633799072
295,1509510.0,16.1512,49.1492,9566.38,228.7,9844.28,0.008475361153642225
296,1509510.0,16.0256,48.7673,9571.55,228.821,9849.19,0.008475361153642225
297,1509500.0,15.901,48.3883,9576.68,228.94099999999997,9854.06,0.008481929673485489
298,1509500.0,15.7774,48.0123,9581.77,229.06,9858.89,0.008481929673485489
299,1509490.0,15.6547,47.6392,9586.82,229.178,9863.68,0.008488498193328642
